Baud rate 2400, low carrier filter 1, 2dB boost
Frequency, Gain (dB), Gain (linear), Half gain (linear)
    0.0000, 0.2086644775, 1.02431, 1.21011
    8.0000, 0.2087234169, 1.02432, 1.21005
   16.0000, 0.2089002255, 1.02434, 1.20990
   24.0000, 0.2091948751, 1.02438, 1.20963
   32.0000, 0.2096073185, 1.02443, 1.20927
   40.0000, 0.2101374888, 1.02449, 1.20880
   48.0000, 0.2107852992, 1.02456, 1.20822
   56.0000, 0.2115506422, 1.02465, 1.20754
   64.0000, 0.2124333890, 1.02476, 1.20676
   72.0000, 0.2134333880, 1.02488, 1.20588
   80.0000, 0.2145504645, 1.02501, 1.20489
   88.0000, 0.2157844186, 1.02515, 1.20381
   96.0000, 0.2171350247, 1.02531, 1.20262
  104.0000, 0.2186020295, 1.02549, 1.20133
  112.0000, 0.2201851506, 1.02567, 1.19994
  120.0000, 0.2218840749, 1.02587, 1.19846
  128.0000, 0.2236984571, 1.02609, 1.19687
  136.0000, 0.2256279173, 1.02632, 1.19519
  144.0000, 0.2276720397, 1.02656, 1.19342
  152.0000, 0.2298303704, 1.02681, 1.19155
  160.0000, 0.2321024157, 1.02708, 1.18958
  168.0000, 0.2344876398, 1.02736, 1.18753
  176.0000, 0.2369854629, 1.02766, 1.18538
  184.0000, 0.2395952593, 1.02797, 1.18315
  192.0000, 0.2423163554, 1.02829, 1.18083
  200.0000, 0.2451480276, 1.02863, 1.17842
  208.0000, 0.2480895006, 1.02897, 1.17593
  216.0000, 0.2511399451, 1.02934, 1.17335
  224.0000, 0.2542984764, 1.02971, 1.17069
  232.0000, 0.2575641525, 1.03010, 1.16796
  240.0000, 0.2609359724, 1.03050, 1.16514
  248.0000, 0.2644128746, 1.03091, 1.16225
  256.0000, 0.2679937356, 1.03133, 1.15928
  264.0000, 0.2716773687, 1.03177, 1.15624
  272.0000, 0.2754625226, 1.03222, 1.15313
  280.0000, 0.2793478809, 1.03268, 1.14996
  288.0000, 0.2833320604, 1.03316, 1.14671
  296.0000, 0.2874136114, 1.03364, 1.14340
  304.0000, 0.2915910163, 1.03414, 1.14003
  312.0000, 0.2958626899, 1.03465, 1.13660
  320.0000, 0.3002269791, 1.03517, 1.13311
  328.0000, 0.3046821630, 1.03570, 1.12957
  336.0000, 0.3092264532, 1.03624, 1.12597
  344.0000, 0.3138579945, 1.03680, 1.12232
  352.0000, 0.3185748654, 1.03736, 1.11862
  360.0000, 0.3233750796, 1.03793, 1.11487
  368.0000, 0.3282565866, 1.03852, 1.11109
  376.0000, 0.3332172739, 1.03911, 1.10726
  384.0000, 0.3382549683, 1.03971, 1.10339
  392.0000, 0.3433674382, 1.04032, 1.09948
  400.0000, 0.3485523956, 1.04094, 1.09554
  408.0000, 0.3538074986, 1.04157, 1.09157
  416.0000, 0.3591303547, 1.04221, 1.08757
  424.0000, 0.3645185229, 1.04286, 1.08355
  432.0000, 0.3699695178, 1.04351, 1.07950
  440.0000, 0.3754808126, 1.04418, 1.07543
  448.0000, 0.3810498429, 1.04485, 1.07134
  456.0000, 0.3866740107, 1.04552, 1.06724
  464.0000, 0.3923506888, 1.04621, 1.06312
  472.0000, 0.3980772246, 1.04690, 1.05900
  480.0000, 0.4038509452, 1.04759, 1.05487
  488.0000, 0.4096691620, 1.04829, 1.05073
  496.0000, 0.4155291759, 1.04900, 1.04659
  504.0000, 0.4214282818, 1.04972, 1.04246
  512.0000, 0.4273637747, 1.05043, 1.03833
  520.0000, 0.4333329545, 1.05115, 1.03420
  528.0000, 0.4393331320, 1.05188, 1.03009
  536.0000, 0.4453616345, 1.05261, 1.02598
  544.0000, 0.4514158112, 1.05335, 1.02189
  552.0000, 0.4574930398, 1.05408, 1.01783
  560.0000, 0.4635907319, 1.05482, 1.01378
  568.0000, 0.4697063392, 1.05557, 1.00975
  576.0000, 0.4758373595, 1.05631, 1.00575
  584.0000, 0.4819813430, 1.05706, 1.00179
  592.0000, 0.4881358980, 1.05781, 0.99785
  600.0000, 0.4942986972, 1.05856, 0.99395
  608.0000, 0.5004674836, 1.05931, 0.99008
  616.0000, 0.5066400765, 1.06006, 0.98626
  624.0000, 0.5128143774, 1.06082, 0.98248
  632.0000, 0.5189883759, 1.06157, 0.97875
  640.0000, 0.5251601550, 1.06233, 0.97506
  648.0000, 0.5313278972, 1.06308, 0.97143
  656.0000, 0.5374898893, 1.06384, 0.96785
  664.0000, 0.5436445280, 1.06459, 0.96432
  672.0000, 0.5497903250, 1.06534, 0.96086
  680.0000, 0.5559259113, 1.06610, 0.95746
  688.0000, 0.5620500423, 1.06685, 0.95412
  696.0000, 0.5681616021, 1.06760, 0.95085
  704.0000, 0.5742596073, 1.06835, 0.94764
  712.0000, 0.5803432107, 1.06910, 0.94451
  720.0000, 0.5864117054, 1.06984, 0.94146
  728.0000, 0.5924645273, 1.07059, 0.93848
  736.0000, 0.5985012581, 1.07133, 0.93558
  744.0000, 0.6045216283, 1.07208, 0.93276
  752.0000, 0.6105255184, 1.07282, 0.93003
  760.0000, 0.6165129614, 1.07356, 0.92738
  768.0000, 0.6224841438, 1.07430, 0.92482
  776.0000, 0.6284394066, 1.07503, 0.92235
  784.0000, 0.6343792458, 1.07577, 0.91997
  792.0000, 0.6403043126, 1.07650, 0.91769
  800.0000, 0.6462154128, 1.07724, 0.91550
  808.0000, 0.6521135063, 1.07797, 0.91341
  816.0000, 0.6579997056, 1.07870, 0.91143
  824.0000, 0.6638752744, 1.07943, 0.90954
  832.0000, 0.6697416250, 1.08016, 0.90776
  840.0000, 0.6756003159, 1.08089, 0.90608
  848.0000, 0.6814530489, 1.08161, 0.90452
  856.0000, 0.6873016650, 1.08234, 0.90306
  864.0000, 0.6931481405, 1.08307, 0.90171
  872.0000, 0.6989945828, 1.08380, 0.90048
  880.0000, 0.7048432249, 1.08453, 0.89936
  888.0000, 0.7106964200, 1.08526, 0.89836
  896.0000, 0.7165566360, 1.08600, 0.89747
  904.0000, 0.7224264482, 1.08673, 0.89670
  912.0000, 0.7283085334, 1.08747, 0.89605
  920.0000, 0.7342056619, 1.08820, 0.89552
  928.0000, 0.7401206901, 1.08895, 0.89511
  936.0000, 0.7460565521, 1.08969, 0.89483
  944.0000, 0.7520162516, 1.09044, 0.89467
  952.0000, 0.7580028525, 1.09119, 0.89463
  960.0000, 0.7640194697, 1.09195, 0.89472
  968.0000, 0.7700692598, 1.09271, 0.89494
  976.0000, 0.7761554105, 1.09347, 0.89528
  984.0000, 0.7822811309, 1.09424, 0.89575
  992.0000, 0.7884496408, 1.09502, 0.89635
 1000.0000, 0.7946641596, 1.09580, 0.89708
 1008.0000, 0.8009278956, 1.09660, 0.89794
 1016.0000, 0.8072440347, 1.09739, 0.89893
 1024.0000, 0.8136157287, 1.09820, 0.90005
 1032.0000, 0.8200460840, 1.09901, 0.90130
 1040.0000, 0.8265381502, 1.09983, 0.90268
 1048.0000, 0.8330949076, 1.10066, 0.90419
 1056.0000, 0.8397192561, 1.10150, 0.90583
 1064.0000, 0.8464140033, 1.10235, 0.90760
 1072.0000, 0.8531818524, 1.10321, 0.90950
 1080.0000, 0.8600253907, 1.10408, 0.91153
 1088.0000, 0.8669470783, 1.10496, 0.91369
 1096.0000, 0.8739492360, 1.10585, 0.91599
 1104.0000, 0.8810340347, 1.10676, 0.91841
 1112.0000, 0.8882034838, 1.10767, 0.92096
 1120.0000, 0.8954594207, 1.10860, 0.92363
 1128.0000, 0.9028035000, 1.10953, 0.92644
 1136.0000, 0.9102371837, 1.11048, 0.92937
 1144.0000, 0.9177617311, 1.11145, 0.93243
 1152.0000, 0.9253781891, 1.11242, 0.93562
 1160.0000, 0.9330873839, 1.11341, 0.93892
 1168.0000, 0.9408899119, 1.11441, 0.94236
 1176.0000, 0.9487861319, 1.11542, 0.94591
 1184.0000, 0.9567761578, 1.11645, 0.94958
 1192.0000, 0.9648598513, 1.11749, 0.95338
 1200.0000, 0.9730368160, 1.11854, 0.95729
 1208.0000, 0.9813063917, 1.11961, 0.96132
 1216.0000, 0.9896676493, 1.12068, 0.96547
 1224.0000, 0.9981193866, 1.12178, 0.96973
 1232.0000, 1.0066601247, 1.12288, 0.97410
 1240.0000, 1.0152881052, 1.12400, 0.97858
 1248.0000, 1.0240012884, 1.12512, 0.98318
 1256.0000, 1.0327973515, 1.12626, 0.98788
 1264.0000, 1.0416736886, 1.12741, 0.99268
 1272.0000, 1.0506274107, 1.12858, 0.99759
 1280.0000, 1.0596553472, 1.12975, 1.00261
 1288.0000, 1.0687540478, 1.13094, 1.00772
 1296.0000, 1.0779197849, 1.13213, 1.01293
 1304.0000, 1.0871485581, 1.13333, 1.01823
 1312.0000, 1.0964360980, 1.13455, 1.02363
 1320.0000, 1.1057778721, 1.13577, 1.02912
 1328.0000, 1.1151690906, 1.13699, 1.03469
 1336.0000, 1.1246047139, 1.13823, 1.04035
 1344.0000, 1.1340794603, 1.13947, 1.04610
 1352.0000, 1.1435878146, 1.14072, 1.05193
 1360.0000, 1.1531240381, 1.14197, 1.05783
 1368.0000, 1.1626821784, 1.14323, 1.06382
 1376.0000, 1.1722560810, 1.14449, 1.06987
 1384.0000, 1.1818394008, 1.14576, 1.07600
 1392.0000, 1.1914256152, 1.14702, 1.08219
 1400.0000, 1.2010080368, 1.14829, 1.08845
 1408.0000, 1.2105798281, 1.14955, 1.09476
 1416.0000, 1.2201340160, 1.15082, 1.10114
 1424.0000, 1.2296635069, 1.15208, 1.10757
 1432.0000, 1.2391611030, 1.15334, 1.11406
 1440.0000, 1.2486195186, 1.15460, 1.12060
 1448.0000, 1.2580313973, 1.15585, 1.12718
 1456.0000, 1.2673893294, 1.15710, 1.13380
 1464.0000, 1.2766858704, 1.15834, 1.14047
 1472.0000, 1.2859135588, 1.15957, 1.14717
 1480.0000, 1.2950649357, 1.16079, 1.15390
 1488.0000, 1.3041325635, 1.16200, 1.16067
 1496.0000, 1.3131090457, 1.16320, 1.16746
 1504.0000, 1.3219870465, 1.16439, 1.17428
 1512.0000, 1.3307593112, 1.16557, 1.18111
 1520.0000, 1.3394186862, 1.16673, 1.18796
 1528.0000, 1.3479581394, 1.16788, 1.19483
 1536.0000, 1.3563707809, 1.16901, 1.20170
 1544.0000, 1.3646498833, 1.17013, 1.20858
 1552.0000, 1.3727889023, 1.17122, 1.21546
 1560.0000, 1.3807814975, 1.17230, 1.22234
 1568.0000, 1.3886215525, 1.17336, 1.22922
 1576.0000, 1.3963031956, 1.17440, 1.23609
 1584.0000, 1.4038208198, 1.17541, 1.24294
 1592.0000, 1.4111691025, 1.17641, 1.24978
 1600.0000, 1.4183430260, 1.17738, 1.25660
 1608.0000, 1.4253378960, 1.17833, 1.26339
 1616.0000, 1.4321493614, 1.17925, 1.27016
 1624.0000, 1.4387734323, 1.18015, 1.27690
 1632.0000, 1.4452064990, 1.18103, 1.28360
 1640.0000, 1.4514453488, 1.18188, 1.29027
 1648.0000, 1.4574871842, 1.18270, 1.29689
 1656.0000, 1.4633296387, 1.18350, 1.30347
 1664.0000, 1.4689707932, 1.18426, 1.31000
 1672.0000, 1.4744091912, 1.18501, 1.31647
 1680.0000, 1.4796438531, 1.18572, 1.32289
 1688.0000, 1.4846742907, 1.18641, 1.32925
 1696.0000, 1.4895005193, 1.18707, 1.33554
 1704.0000, 1.4941230702, 1.18770, 1.34177
 1712.0000, 1.4985430020, 1.18830, 1.34792
 1720.0000, 1.5027619105, 1.18888, 1.35400
 1728.0000, 1.5067819379, 1.18943, 1.36000
 1736.0000, 1.5106057809, 1.18995, 1.36592
 1744.0000, 1.5142366977, 1.19045, 1.37175
 1752.0000, 1.5176785136, 1.19092, 1.37749
 1760.0000, 1.5209356257, 1.19137, 1.38313
 1768.0000, 1.5240130060, 1.19179, 1.38868
 1776.0000, 1.5269162034, 1.19219, 1.39413
 1784.0000, 1.5296513442, 1.19257, 1.39948
 1792.0000, 1.5322251313, 1.19292, 1.40472
 1800.0000, 1.5346448415, 1.19325, 1.40985
 1808.0000, 1.5369183219, 1.19356, 1.41486
 1816.0000, 1.5390539844, 1.19386, 1.41975
 1824.0000, 1.5410607985, 1.19413, 1.42453
 1832.0000, 1.5429482825, 1.19439, 1.42918
 1840.0000, 1.5447264931, 1.19464, 1.43370
 1848.0000, 1.5464060132, 1.19487, 1.43809
 1856.0000, 1.5479979377, 1.19509, 1.44235
 1864.0000, 1.5495138580, 1.19530, 1.44647
 1872.0000, 1.5509658442, 1.19550, 1.45045
 1880.0000, 1.5523664253, 1.19569, 1.45428
 1888.0000, 1.5537285682, 1.19588, 1.45797
 1896.0000, 1.5550656540, 1.19606, 1.46151
 1904.0000, 1.5563914529, 1.19624, 1.46490
 1912.0000, 1.5577200968, 1.19643, 1.46813
 1920.0000, 1.5590660504, 1.19661, 1.47121
 1928.0000, 1.5604440797, 1.19680, 1.47412
 1936.0000, 1.5618692195, 1.19700, 1.47687
 1944.0000, 1.5633567377, 1.19720, 1.47945
 1952.0000, 1.5649220993, 1.19742, 1.48187
 1960.0000, 1.5665809271, 1.19765, 1.48411
 1968.0000, 1.5683489613, 1.19789, 1.48619
 1976.0000, 1.5702420175, 1.19815, 1.48808
 1984.0000, 1.5722759423, 1.19843, 1.48980
 1992.0000, 1.5744665682, 1.19874, 1.49134
 2000.0000, 1.5768296659, 1.19906, 1.49269
 2008.0000, 1.5793808957, 1.19941, 1.49386
 2016.0000, 1.5821357578, 1.19979, 1.49484
 2024.0000, 1.5851095408, 1.20021, 1.49564
 2032.0000, 1.5883172687, 1.20065, 1.49624
 2040.0000, 1.5917736482, 1.20113, 1.49665
 2048.0000, 1.5954930136, 1.20164, 1.49687
 2056.0000, 1.5994892718, 1.20219, 1.49689
 2064.0000, 1.6037758463, 1.20279, 1.49671
 2072.0000, 1.6083656209, 1.20342, 1.49633
 2080.0000, 1.6132708834, 1.20410, 1.49576
 2088.0000, 1.6185032682, 1.20483, 1.49498
 2096.0000, 1.6240737001, 1.20560, 1.49400
 2104.0000, 1.6299923374, 1.20642, 1.49281
 2112.0000, 1.6362685162, 1.20730, 1.49142
 2120.0000, 1.6429106944, 1.20822, 1.48982
 2128.0000, 1.6499263975, 1.20919, 1.48802
 2136.0000, 1.6573221643, 1.21022, 1.48601
 2144.0000, 1.6651034950, 1.21131, 1.48378
 2152.0000, 1.6732747991, 1.21245, 1.48135
 2160.0000, 1.6818393466, 1.21365, 1.47871
 2168.0000, 1.6907992194, 1.21490, 1.47585
 2176.0000, 1.7001552654, 1.21621, 1.47279
 2184.0000, 1.7099070547, 1.21757, 1.46951
 2192.0000, 1.7200528375, 1.21900, 1.46602
 2200.0000, 1.7305895047, 1.22048, 1.46232
 2208.0000, 1.7415125514, 1.22201, 1.45841
 2216.0000, 1.7528160422, 1.22360, 1.45428
 2224.0000, 1.7644925798, 1.22525, 1.44994
 2232.0000, 1.7765332767, 1.22695, 1.44539
 2240.0000, 1.7889277289, 1.22870, 1.44063
 2248.0000, 1.8016639936, 1.23050, 1.43565
 2256.0000, 1.8147285698, 1.23236, 1.43047
 2264.0000, 1.8281063813, 1.23426, 1.42507
 2272.0000, 1.8417807634, 1.23620, 1.41946
 2280.0000, 1.8557334529, 1.23819, 1.41365
 2288.0000, 1.8699445809, 1.24022, 1.40762
 2296.0000, 1.8843926683, 1.24228, 1.40139
 2304.0000, 1.8990546254, 1.24438, 1.39495
 2312.0000, 1.9139057530, 1.24651, 1.38830
 2320.0000, 1.9289197478, 1.24867, 1.38145
 2328.0000, 1.9440687095, 1.25084, 1.37440
 2336.0000, 1.9593231512, 1.25304, 1.36714
 2344.0000, 1.9746520115, 1.25526, 1.35968
 2352.0000, 1.9900226702, 1.25748, 1.35202
 2360.0000, 2.0054009649, 1.25971, 1.34417
 2368.0000, 2.0207512101, 1.26194, 1.33612
 2376.0000, 2.0360362185, 1.26416, 1.32787
 2384.0000, 2.0512173235, 1.26637, 1.31943
 2392.0000, 2.0662544030, 1.26856, 1.31080
 2400.0000, 2.0811059044, 1.27074, 1.30198
 2408.0000, 2.0957288713, 1.27288, 1.29298
 2416.0000, 2.1100789697, 1.27498, 1.28379
 2424.0000, 2.1241105157, 1.27704, 1.27441
 2432.0000, 2.1377765029, 1.27905, 1.26486
 2440.0000, 2.1510286301, 1.28101, 1.25513
 2448.0000, 2.1638173286, 1.28289, 1.24522
 2456.0000, 2.1760917892, 1.28471, 1.23514
 2464.0000, 2.1877999879, 1.28644, 1.22489
 2472.0000, 2.1988887116, 1.28808, 1.21447
 2480.0000, 2.2093035816, 1.28963, 1.20389
 2488.0000, 2.2189890763, 1.29107, 1.19314
 2496.0000, 2.2278885515, 1.29239, 1.18223
 2504.0000, 2.2359442599, 1.29359, 1.17117
 2512.0000, 2.2430973670, 1.29466, 1.15995
 2520.0000, 2.2492879652, 1.29558, 1.14859
 2528.0000, 2.2544550858, 1.29635, 1.13707
 2536.0000, 2.2585367068, 1.29696, 1.12541
 2544.0000, 2.2614697585, 1.29740, 1.11361
 2552.0000, 2.2631901256, 1.29766, 1.10168
 2560.0000, 2.2636326449, 1.29772, 1.08961
 2568.0000, 2.2627311002, 1.29759, 1.07740
 2576.0000, 2.2604182119, 1.29724, 1.06507
 2584.0000, 2.2566256231, 1.29668, 1.05262
 2592.0000, 2.2512838807, 1.29588, 1.04005
 2600.0000, 2.2443224110, 1.29484, 1.02736
 2608.0000, 2.2356694911, 1.29355, 1.01455
 2616.0000, 2.2252522136, 1.29200, 1.00164
 2624.0000, 2.2129964465, 1.29018, 0.98862
 2632.0000, 2.1988267857, 1.28808, 0.97551
 2640.0000, 2.1826665019, 1.28568, 0.96229
 2648.0000, 2.1644374802, 1.28299, 0.94898
 2656.0000, 2.1440601519, 1.27998, 0.93558
 2664.0000, 2.1214534185, 1.27665, 0.92210
 2672.0000, 2.0965345680, 1.27300, 0.90853
 2680.0000, 2.0692191811, 1.26900, 0.89489
 2688.0000, 2.0394210287, 1.26465, 0.88117
 2696.0000, 2.0070519588, 1.25995, 0.86738
 2704.0000, 1.9720217721, 1.25488, 0.85353
 2712.0000, 1.9342380864, 1.24943, 0.83962
 2720.0000, 1.8936061873, 1.24360, 0.82565
 2728.0000, 1.8500288665, 1.23738, 0.81163
 2736.0000, 1.8034062434, 1.23075, 0.79756
 2744.0000, 1.7536355719, 1.22372, 0.78345
 2752.0000, 1.7006110288, 1.21627, 0.76930
 2760.0000, 1.6442234835, 1.20840, 0.75511
 2768.0000, 1.5843602456, 1.20010, 0.74090
 2776.0000, 1.5209047910, 1.19137, 0.72665
 2784.0000, 1.4537364610, 1.18219, 0.71239
 2792.0000, 1.3827301345, 1.17256, 0.69811
 2800.0000, 1.3077558693, 1.16249, 0.68381
 2808.0000, 1.2286785086, 1.15195, 0.66951
 2816.0000, 1.1453572505, 1.14095, 0.65520
 2824.0000, 1.0576451745, 1.12949, 0.64089
 2832.0000, 0.9653887219, 1.11756, 0.62659
 2840.0000, 0.8684271229, 1.10515, 0.61230
 2848.0000, 0.7665917652, 1.09227, 0.59802
 2856.0000, 0.6597054965, 1.07891, 0.58375
 2864.0000, 0.5475818527, 1.06507, 0.56952
 2872.0000, 0.4300242011, 1.05075, 0.55530
 2880.0000, 0.3068247890, 1.03596, 0.54112
 2888.0000, 0.1777636836, 1.02068, 0.52698
 2896.0000, 0.0426075885, 1.00492, 0.51287
 2904.0000, -0.0988914811, 0.98868, 0.49881
 2912.0000, -0.2469976853, 0.97196, 0.48480
 2920.0000, -0.4019930323, 0.95477, 0.47084
 2928.0000, -0.5641792669, 0.93711, 0.45693
 2936.0000, -0.7338800077, 0.91898, 0.44309
 2944.0000, -0.9114431750, 0.90038, 0.42932
 2952.0000, -1.0972437573, 0.88133, 0.41561
 2960.0000, -1.2916869744, 0.86182, 0.40198
 2968.0000, -1.4952119100, 0.84186, 0.38842
 2976.0000, -1.7082956965, 0.82146, 0.37495
 2984.0000, -1.9314583600, 0.80062, 0.36157
 2992.0000, -2.1652684521, 0.77936, 0.34827
 3000.0000, -2.4103496289, 0.75767, 0.33507
 3008.0000, -2.6673883743, 0.73558, 0.32197
 3016.0000, -2.9371431173, 0.71309, 0.30897
 3024.0000, -3.2204550546, 0.69020, 0.29608
 3032.0000, -3.5182610795, 0.66694, 0.28329
 3040.0000, -3.8316093271, 0.64331, 0.27062
 3048.0000, -4.1616780003, 0.61932, 0.25807
 3056.0000, -4.5097983456, 0.59499, 0.24563
 3064.0000, -4.8774829255, 0.57033, 0.23333
 3072.0000, -5.2664607278, 0.54535, 0.22115
 3080.0000, -5.6787211964, 0.52007, 0.20910
 3088.0000, -6.1165700526, 0.49451, 0.19718
 3096.0000, -6.5827009121, 0.46867, 0.18541
 3104.0000, -7.0802883855, 0.44257, 0.17377
 3112.0000, -7.6131108972, 0.41624, 0.16229
 3120.0000, -8.1857153854, 0.38969, 0.15094
 3128.0000, -8.8036422901, 0.36293, 0.13976
 3136.0000, -9.4737394179, 0.33598, 0.12872
 3144.0000, -10.2046104615, 0.30887, 0.11784
 3152.0000, -11.0072740647, 0.28160, 0.10712
 3160.0000, -11.8961644430, 0.25421, 0.09657
 3168.0000, -12.8907108028, 0.22671, 0.08618
 3176.0000, -14.0179505228, 0.19911, 0.07596
 3184.0000, -15.3171120782, 0.17145, 0.06591
 3192.0000, -16.8482710518, 0.14374, 0.05603
 3200.0000, -18.7103821358, 0.11601, 0.04633
 3208.0000, -21.0843390161, 0.08826, 0.03681
 3216.0000, -24.3594300196, 0.06054, 0.02747
 3224.0000, -29.6690978340, 0.03285, 0.01831
 3232.0000, -45.6395146498, 0.00522, 0.00934
 3240.0000, -33.0265688455, 0.02232, 0.00055
 3248.0000, -26.0631262094, 0.04976, 0.00805
 3256.0000, -22.2629997947, 0.07706, 0.01645
 3264.0000, -19.6410126724, 0.10422, 0.02467
 3272.0000, -17.6413070116, 0.13120, 0.03268
 3280.0000, -16.0278222235, 0.15798, 0.04051
 3288.0000, -14.6780497255, 0.18454, 0.04813
 3296.0000, -13.5201792165, 0.21086, 0.05556
 3304.0000, -12.5084920623, 0.23691, 0.06279
 3312.0000, -11.6120806469, 0.26266, 0.06981
 3320.0000, -10.8090739282, 0.28810, 0.07663
 3328.0000, -10.0834290183, 0.31320, 0.08325
 3336.0000, -9.4230314727, 0.33795, 0.08966
 3344.0000, -8.8185117546, 0.36231, 0.09587
 3352.0000, -8.2624764897, 0.38626, 0.10187
 3360.0000, -7.7489914452, 0.40978, 0.10766
 3368.0000, -7.2732233791, 0.43285, 0.11324
 3376.0000, -6.8311855660, 0.45545, 0.11862
 3384.0000, -6.4195529533, 0.47755, 0.12378
 3392.0000, -6.0355252761, 0.49914, 0.12874
 3400.0000, -5.6767239399, 0.52019, 0.13349
 3408.0000, -5.3411131506, 0.54069, 0.13803
 3416.0000, -5.0269387654, 0.56060, 0.14236
 3424.0000, -4.7326802974, 0.57992, 0.14647
 3432.0000, -4.4570128279, 0.59862, 0.15038
 3440.0000, -4.1987764751, 0.61668, 0.15408
 3448.0000, -3.9569516990, 0.63409, 0.15757
 3456.0000, -3.7306391589, 0.65083, 0.16086
 3464.0000, -3.5190431624, 0.66688, 0.16393
 3472.0000, -3.3214579715, 0.68222, 0.16680
 3480.0000, -3.1372564033, 0.69685, 0.16945
 3488.0000, -2.9658802878, 0.71073, 0.17191
 3496.0000, -2.8068324416, 0.72387, 0.17416
 3504.0000, -2.6596698872, 0.73624, 0.17620
 3512.0000, -2.5239981039, 0.74783, 0.17804
 3520.0000, -2.3994661391, 0.75862, 0.17968
 3528.0000, -2.2857624425, 0.76862, 0.18112
 3536.0000, -2.1826113109, 0.77780, 0.18235
 3544.0000, -2.0897698543, 0.78616, 0.18339
 3552.0000, -2.0070254086, 0.79369, 0.18424
 3560.0000, -1.9341933354, 0.80037, 0.18489
 3568.0000, -1.8711151592, 0.80620, 0.18534
 3576.0000, -1.8176570024, 0.81118, 0.18561
 3584.0000, -1.7737082848, 0.81529, 0.18568
 3592.0000, -1.7391806619, 0.81854, 0.18557
 3600.0000, -1.7140071810, 0.82092, 0.18527
 3608.0000, -1.6981416376, 0.82242, 0.18479
 3616.0000, -1.6915581215, 0.82304, 0.18413
 3624.0000, -1.6942507434, 0.82279, 0.18329
 3632.0000, -1.7062335360, 0.82165, 0.18227
 3640.0000, -1.7275405292, 0.81964, 0.18108
 3648.0000, -1.7582259994, 0.81675, 0.17971
 3656.0000, -1.7983648985, 0.81298, 0.17818
 3664.0000, -1.8480534695, 0.80835, 0.17648
